#            KE            Etot        Barostat      Thermostat           Total     Hamiltonian        SNOSE[0]              H0          VOLUME     TEMPERATURE        PRESSURE
     0.01417599       -12.93155       0.2857682    2.110303e-33       -12.63161   -7.436213e-05               1       -12.63153        700.6322        994.7607       -5.925338
     0.01402706       -12.93139        0.285769    7.000868e-08       -12.63159   -6.168386e-05       0.9999996       -12.63153        700.6282          984.31        -5.93243
     0.01387784       -12.93123       0.2857706   -5.471735e-07       -12.63158    -5.29101e-05       0.9999688       -12.63153        700.6203        973.8386       -5.939361
     0.01372827       -12.93108        0.285773   -1.866714e-06       -12.63158   -4.739028e-05       0.9999064       -12.63153        700.6084        963.3435       -5.946089
     0.01357835       -12.93093       0.2857762   -3.902709e-06       -12.63158   -4.515923e-05       0.9998109       -12.63153        700.5926        952.8233       -5.952619
     0.01342809       -12.93078       0.2857803   -6.668278e-06       -12.63158   -4.694208e-05       0.9996811       -12.63153        700.5728         942.279       -5.958999
     0.01327752       -12.93064       0.2857851   -1.017557e-05       -12.63158   -5.286168e-05       0.9995157       -12.63153         700.549        931.7132       -5.965218
     0.01312672        -12.9305       0.2857907   -1.443584e-05        -12.6316   -6.336403e-05       0.9993135       -12.63153        700.5213        921.1312       -5.971322
     0.01297579       -12.93037       0.2857971   -1.945962e-05       -12.63161   -7.947298e-05       0.9990731       -12.63153        700.4896          910.54       -5.977352
     0.01282487       -12.93024       0.2858044   -2.525681e-05       -12.63163   -0.0001017712       0.9987935       -12.63153        700.4539        899.9494       -5.983321
     0.01267412       -12.93012       0.2858124    -3.18367e-05       -12.63166   -0.0001307732       0.9984734       -12.63153        700.4143         889.371       -5.989232
     0.01252374          -12.93       0.2858213   -3.920805e-05        -12.6317     -0.00016644       0.9981117       -12.63153        700.3708        878.8185       -5.995043
     0.01237394        -12.9299        0.285831   -4.737896e-05       -12.63174   -0.0002081179       0.9977074       -12.63153        700.3233        868.3073       -6.000717
     0.01222499        -12.9298       0.2858415   -5.635656e-05       -12.63179    -0.000253855       0.9972595       -12.63153        700.2719        857.8547       -6.006206
     0.01207714        -12.9297       0.2858528   -6.614655e-05       -12.63183   -0.0003008333        0.996767       -12.63153        700.2165        847.4801       -6.011489
     0.01193071        -12.9296       0.2858649   -7.675312e-05       -12.63188   -0.0003467358       0.9962288       -12.63153        700.1573        837.2043       -6.016566
       0.011786        -12.9295       0.2858778   -8.817934e-05       -12.63192   -0.0003905666       0.9956441       -12.63153        700.0941        827.0496       -6.021416
     0.01164336        -12.9294       0.2858916   -0.0001004278       -12.63197   -0.0004324531        0.995012       -12.63153         700.027        817.0408       -6.025978
     0.01150318        -12.9293       0.2859061   -0.0001135011       -12.63201   -0.0004723485       0.9943315       -12.63153         699.956        807.2037       -6.030203
     0.01136584        -12.9292       0.2859215   -0.0001274012       -12.63204     -0.00050966       0.9936017       -12.63153        699.8811         797.566       -6.034058
     0.01123175       -12.92911       0.2859376     -0.00014213       -12.63208   -0.0005438104       0.9928218       -12.63153        699.8023        788.1566       -6.037524
     0.01110134       -12.92901       0.2859546   -0.0001576887       -12.63211   -0.0005739729       0.9919909       -12.63153        699.7197        779.0057       -6.040574
     0.01097507       -12.92891       0.2859723   -0.0001740782       -12.63214   -0.0005996276       0.9911081       -12.63153        699.6332        770.1449       -6.043177
     0.01085339       -12.92881       0.2859909   -0.0001912994       -12.63216   -0.0006206823       0.9901728       -12.63153        699.5429        761.6068        -6.04534
      0.0107368       -12.92871       0.2860102   -0.0002093535       -12.63218   -0.0006372185       0.9891841       -12.63153        699.4488        753.4254       -6.047064
      0.0106258       -12.92862       0.2860303   -0.0002282428       -12.63219    -0.000649778       0.9881412       -12.63153        699.3509         745.636       -6.048303
     0.01052089       -12.92852       0.2860512   -0.0002479712        -12.6322   -0.0006599111       0.9870435       -12.63153        699.2492        738.2745        -6.04901
     0.01042261       -12.92844       0.2860729   -0.0002685456       -12.63221   -0.0006693359       0.9858904       -12.63153        699.1437        731.3778       -6.049149
     0.01033149       -12.92836       0.2860954   -0.0002899758       -12.63222   -0.0006790403       0.9846812       -12.63153        699.0345         724.984       -6.048755
      0.0102481       -12.92829       0.2861186   -0.0003122739       -12.63223   -0.0006891743       0.9834154       -12.63153        698.9215        719.1318       -6.047799
     0.01017298       -12.92822       0.2861426   -0.0003354543       -12.63224   -0.0006999402       0.9820926       -12.63153        698.8049        713.8604       -6.046243
      0.0101067       -12.92817       0.2861673   -0.0003595336       -12.63226   -0.0007112656       0.9807125       -12.63153        698.6846        709.2093       -6.044049
     0.01004983       -12.92813       0.2861928   -0.0003845305       -12.63227   -0.0007229113       0.9792749       -12.63153        698.5606        705.2186       -6.041149
     0.01000294       -12.92809        0.286219   -0.0004104656       -12.63228   -0.0007341339       0.9777795       -12.63153        698.4329        701.9288       -6.037512
    0.009966632       -12.92807       0.2862459   -0.0004373614       -12.63229   -0.0007442439       0.9762265       -12.63153        698.3017        699.3808        -6.03316
     0.00994148       -12.92805       0.2862735   -0.0004652425        -12.6323   -0.0007531931       0.9746157       -12.63153        698.1669        697.6158       -6.028091
    0.009928086       -12.92805       0.2863018    -0.000494137       -12.63231   -0.0007612664       0.9729473       -12.63153        698.0285        696.6759       -6.022288
    0.009927056       -12.92806       0.2863309   -0.0005240773       -12.63232   -0.0007694139       0.9712217       -12.63153        697.8866        696.6036       -6.015717
    0.009939001       -12.92808       0.2863606   -0.0005551013       -12.63233   -0.0007783888       0.9694391       -12.63153        697.7413        697.4418       -6.008357
    0.009964534       -12.92812       0.2863909   -0.0005872515       -12.63235   -0.0007886643       0.9676001       -12.63153        697.5924        699.2336        -6.00021
     0.01000428       -12.92817        0.286422   -0.0006205759       -12.63236   -0.0008008709       0.9657053       -12.63153        697.4401        702.0224       -5.991273
     0.01005885       -12.92824       0.2864536   -0.0006551279       -12.63238   -0.0008157323       0.9637554       -12.63153        697.2844         705.852       -5.981532
     0.01012889       -12.92832        0.286486   -0.0006909664        -12.6324   -0.0008336635       0.9617514       -12.63153        697.1254        710.7666       -5.970973
     0.01021501       -12.92843       0.2865189   -0.0007281557       -12.63242   -0.0008549006       0.9596944       -12.63153         696.963          716.81       -5.959596
     0.01031785       -12.92855       0.2865524   -0.0007667646       -12.63245   -0.0008797323       0.9575854       -12.63153        696.7973        724.0265        -5.94739
     0.01043804        -12.9287       0.2865865   -0.0008068671       -12.63248   -0.0009082404        0.955426       -12.63153        696.6284        732.4602       -5.934292
      0.0105762       -12.92887       0.2866212   -0.0008485412       -12.63252   -0.0009405195       0.9532177       -12.63153        696.4562        742.1554       -5.920253
     0.01073296       -12.92906       0.2866564   -0.0008918691       -12.63256    -0.000976574       0.9509622       -12.63153        696.2809        753.1556       -5.905248
     0.01090893       -12.92927       0.2866922   -0.0009369359        -12.6326    -0.001016045       0.9486612       -12.63153        696.1024        765.5037       -5.889261
     0.01110472        -12.9295       0.2867285   -0.0009838293       -12.63265    -0.001058742        0.946317       -12.63153        695.9207        779.2431       -5.872257
     0.01132095       -12.92976       0.2867653    -0.001032638        -12.6327    -0.001104141       0.9439317       -12.63153         695.736        794.4161       -5.854244
     0.01155821       -12.93003       0.2868026    -0.001083452       -12.63275    -0.001151297       0.9415077       -12.63153        695.5483        811.0652       -5.835239
      0.0118171       -12.93033       0.2868403    -0.001136358       -12.63281    -0.001200068       0.9390475       -12.63153        695.3575        829.2324       -5.815192
     0.01209821       -12.93065       0.2868786    -0.001191448       -12.63287    -0.001251223       0.9365539       -12.63153        695.1638        848.9587       -5.794054
     0.01240214         -12.931       0.2869172     -0.00124881       -12.63293    -0.001304896       0.9340298       -12.63153        694.9672        870.2858       -5.771749
     0.01272945       -12.93137       0.2869562    -0.001308534       -12.63299    -0.001360375       0.9314782       -12.63153        694.7677        893.2537       -5.748214
      0.0130807       -12.93176       0.2869957    -0.001370702       -12.63306    -0.001417521       0.9289024       -12.63153        694.5653        917.9017       -5.723371
     0.01345644       -12.93218       0.2870355    -0.001435395       -12.63313    -0.001476897       0.9263058       -12.63153        694.3601        944.2685       -5.697136
     0.01385722       -12.93263       0.2870757    -0.001502688        -12.6332    -0.001538762        0.923692       -12.63153        694.1522        972.3921       -5.669462
     0.01428356        -12.9331       0.2871162    -0.001572649       -12.63327    -0.001602954       0.9210648       -12.63153        693.9415        1002.309       -5.640269
     0.01473597        -12.9336       0.2871569    -0.001645338       -12.63335    -0.001669766       0.9184281       -12.63153        693.7281        1034.056       -5.609469
     0.01521492       -12.93412        0.287198    -0.001720803       -12.63343    -0.001739681        0.915786       -12.63153        693.5121        1067.665       -5.576932
     0.01572087       -12.93468       0.2872393    -0.001799083       -12.63352    -0.001813078       0.9131429       -12.63153        693.2934        1103.168       -5.542582
     0.01625424       -12.93526       0.2872809    -0.001880198       -12.63361    -0.001889608       0.9105033       -12.63153        693.0721        1140.596       -5.506408
     0.01681542       -12.93587       0.2873226     -0.00196415        -12.6337    -0.001968869       0.9078718       -12.63153        692.8483        1179.976       -5.468381
      0.0174048       -12.93652       0.2873645    -0.002050919        -12.6338    -0.002050462       0.9052533       -12.63153        692.6219        1221.333       -5.428473
      0.0180227       -12.93718       0.2874066    -0.002140458       -12.63389    -0.002132855       0.9026529       -12.63153         692.393        1264.693       -5.386594
     0.01866942       -12.93788       0.2874487    -0.002232688       -12.63399    -0.002215284       0.9000758       -12.63153        692.1617        1310.075       -5.342679
     0.01934521        -12.9386        0.287491      -0.0023275       -12.63409    -0.002297322       0.8975273       -12.63153        691.9279        1357.496       -5.296671
     0.02005026       -12.93935       0.2875333    -0.002424751       -12.63419     -0.00237809       0.8950131       -12.63153        691.6917        1406.971       -5.248483
     0.02078469       -12.94012       0.2875756     -0.00252426       -12.63429    -0.002457692       0.8925388       -12.63153        691.4531        1458.508       -5.197977
      0.0215485       -12.94092        0.287618    -0.002625806       -12.63438    -0.002536138       0.8901103       -12.63153        691.2122        1512.107       -5.145059
     0.02234163       -12.94175       0.2876603    -0.002729125       -12.63448    -0.002612844       0.8877336       -12.63153        690.9689        1567.762       -5.089642
     0.02316388        -12.9426       0.2877025    -0.002833906       -12.63457    -0.002688455        0.885415       -12.63153        690.7233        1625.461       -5.031603
     0.02401496       -12.94348       0.2877446    -0.002939791       -12.63466    -0.002764216       0.8831608       -12.63153        690.4753        1685.183       -4.970838
     0.02489442       -12.94439       0.2877866    -0.003046369       -12.63476    -0.002841215       0.8809775       -12.63153        690.2251        1746.897       -4.907223
     0.02580169       -12.94533       0.2878285    -0.003153172       -12.63485    -0.002919554       0.8788718       -12.63153        689.9726        1810.562       -4.840606
     0.02673598        -12.9463       0.2878701    -0.003259669       -12.63495    -0.002999138       0.8768506       -12.63153        689.7178        1876.123       -4.770715
      0.0276963       -12.94729       0.2879114    -0.003365259       -12.63505    -0.003079094       0.8749208       -12.63153        689.4607        1943.511       -4.697378
     0.02868144       -12.94831       0.2879525    -0.003469271       -12.63515    -0.003158839       0.8730898       -12.63153        689.2014         2012.64       -4.620393
     0.02968996       -12.94936       0.2879932    -0.003570955       -12.63525    -0.003237989       0.8713647       -12.63153        688.9398        2083.411       -4.539658
     0.03072019       -12.95043       0.2880335    -0.003669491       -12.63535    -0.003316724       0.8697532       -12.63153        688.6759        2155.704       -4.455056
      0.0317702       -12.95152       0.2880734    -0.003763977       -12.63544     -0.00339511       0.8682628       -12.63153        688.4097        2229.386       -4.366511
     0.03283776       -12.95264       0.2881128    -0.003853433       -12.63554    -0.003473271       0.8669013       -12.63153        688.1413        2304.299       -4.273886
     0.03392029       -12.95377       0.2881516    -0.003936802       -12.63564    -0.003552342       0.8656766       -12.63153        687.8705        2380.263        -4.17689
     0.03501476       -12.95492       0.2881899    -0.004012944       -12.63573     -0.00363217       0.8645966       -12.63153        687.5975        2457.063       -4.074994
     0.03611762       -12.95609       0.2882276    -0.004080644       -12.63583     -0.00371167       0.8636696       -12.63153        687.3221        2534.454       -3.967911
     0.03722489       -12.95727       0.2882645    -0.004138605       -12.63592    -0.003788701       0.8629038       -12.63153        687.0443        2612.154       -3.855318
     0.03833204       -12.95846       0.2883006    -0.004185463       -12.63601    -0.003859658       0.8623074       -12.63153        686.7642        2689.844       -3.736853
     0.03943393       -12.95963       0.2883359    -0.004219795       -12.63608     -0.00392266       0.8618889       -12.63153        686.4816        2767.167       -3.612007
     0.04052484        -12.9608       0.2883702    -0.004240131       -12.63615    -0.003975243       0.8616564       -12.63153        686.1966        2843.718       -3.480495
     0.04159839       -12.96195       0.2884036    -0.004244974       -12.63619     -0.00401501       0.8616184       -12.63153        685.9091        2919.052       -3.341977
      0.0426476       -12.96307       0.2884358    -0.004232819       -12.63622    -0.004038983        0.861783       -12.63153         685.619        2992.677       -3.196402
     0.04366483       -12.96415       0.2884668    -0.004202174       -12.63622    -0.004044112       0.8621583       -12.63153        685.3264        3064.059       -3.043657
     0.04464171       -12.96519       0.2884966    -0.004151593        -12.6362    -0.004028864       0.8627522       -12.63153        685.0311        3132.608       -2.882954
     0.04556887       -12.96617       0.2885249    -0.004079701       -12.63615    -0.003990876       0.8635723       -12.63153        684.7332        3197.669       -2.713547
      0.0464361       -12.96708       0.2885517    -0.003985229       -12.63608    -0.003930094        0.864626       -12.63153        684.4325        3258.524        -2.53519
     0.04723245       -12.96792       0.2885769    -0.003867048       -12.63598    -0.003847624       0.8659202       -12.63153        684.1289        3314.406       -2.347648
     0.04794623       -12.96867       0.2886004    -0.003724203       -12.63585    -0.003744031       0.8674615       -12.63153        683.8226        3364.494       -2.150477
     0.04856495       -12.96933       0.2886219    -0.003555955        -12.6357    -0.003619951       0.8692559       -12.63153        683.5132        3407.911       -1.943264
     0.04907542       -12.96988       0.2886414    -0.003361821       -12.63552    -0.003475991       0.8713089       -12.63153        683.2009        3443.732       -1.725874
     0.04946396        -12.9703       0.2886587    -0.003141617       -12.63532      -0.0033119       0.8736252       -12.63153        682.8854        3470.996       -1.498278
     0.04971653       -12.97059       0.2886737    -0.002895513        -12.6351    -0.003125315       0.8762087       -12.63153        682.5668         3488.72       -1.260619
     0.04981894       -12.97073       0.2886862    -0.002624076       -12.63485    -0.002913093       0.8790627       -12.63153        682.2449        3495.906       -1.013068
     0.04975686       -12.97068        0.288696    -0.002328326       -12.63456    -0.002670723        0.882189       -12.63153        681.9198        3491.549      -0.7550013
     0.04951601       -12.97045       0.2887029    -0.002009763       -12.63424    -0.002400862       0.8855887       -12.63153        681.5912        3474.648      -0.4862152
     0.04908261       -12.97002       0.2887069    -0.001670376        -12.6339    -0.002108064       0.8892611       -12.63153        681.2591        3444.236      -0.2066194
      0.0484439       -12.96938       0.2887076    -0.001312647       -12.63354    -0.001797415       0.8932044       -12.63153        680.9235        3399.416      0.08348655
     0.04758869       -12.96853        0.288705   -0.0009395505       -12.63317    -0.001472911       0.8974152       -12.63153        680.5842        3339.404       0.3832659
     0.04650804       -12.96745       0.2886988   -0.0005545291        -12.6328    -0.001139562       0.9018884       -12.63153        680.2412        3263.572       0.6917834
     0.04519572       -12.96614       0.2886888   -0.0001614505       -12.63242    -0.000803511       0.9066171       -12.63153        679.8945        3171.484        1.008208
     0.04364887        -12.9646       0.2886749    0.0002354468       -12.63204   -0.0004670823       0.9115927       -12.63153        679.5438        3062.938        1.331473
