#            KE            Etot        Barostat      Thermostat           Total     Hamiltonian        SNOSE[0]              H0          VOLUME     TEMPERATURE        PRESSURE
      0.2168131        -52.7324     0.008702508               0       -52.50689               0               1               0        2560.108        2402.252     0.000630335
      0.2178313       -52.73307     0.008709591               0       -52.50653               0               1               0        2560.119        2413.533     0.000629731
      0.2192324       -52.73416     0.008723735               0       -52.50621               0               1               0        2560.142        2429.056    0.0006289162
      0.2210473       -52.73588     0.008744908               0       -52.50609               0               1               0        2560.175        2449.166     0.000627836
      0.2233189       -52.73818     0.008773063               0       -52.50608               0               1               0         2560.22        2474.335    0.0006265004
      0.2261031       -52.74104     0.008808146               0       -52.50613               0               1               0        2560.276        2505.183     0.000624921
      0.2294717        -52.7445     0.008850088               0       -52.50618               0               1               0        2560.344        2542.506    0.0006230857
      0.2335156       -52.74857     0.008898811               0       -52.50615               0               1               0        2560.422        2587.312    0.0006210061
      0.2383476       -52.75329     0.008954226               0       -52.50599               0               1               0        2560.511         2640.85    0.0006186545
      0.2441044       -52.75895     0.009016226               0       -52.50583               0               1               0        2560.612        2704.634     0.000615966
      0.2509482       -52.76585     0.009084682               0       -52.50582               0               1               0        2560.723        2780.462    0.0006128536
      0.2590683       -52.77433     0.009159442               0        -52.5061               0               1               0        2560.846        2870.431    0.0006092677
       0.268678       -52.78461     0.009240328               0       -52.50669               0               1               0        2560.979        2976.906    0.0006051953
      0.2800081       -52.79649     0.009327148               0       -52.50715               0               1               0        2561.123        3102.441    0.0006006905
      0.2933024       -52.80999     0.009419697               0       -52.50726               0               1               0        2561.278        3249.739    0.0005958292
      0.3088201       -52.82543     0.009517774               0       -52.50709               0               1               0        2561.443        3421.672    0.0005907001
      0.3268382       -52.84313     0.009621176               0       -52.50667               0               1               0        2561.619        3621.311    0.0005853783
      0.3476581       -52.86398     0.009729707               0        -52.5066               0               1               0        2561.805        3851.991    0.0005799255
      0.3716019       -52.88851     0.009843204               0       -52.50707               0               1               0        2562.002        4117.284    0.0005746662
      0.3989521       -52.91595     0.009961627               0       -52.50704               0               1               0        2562.209         4420.32    0.0005703773
      0.4298395       -52.94633      0.01008515               0       -52.50641               0               1               0        2562.426        4762.547    0.0005679794
      0.4641248       -52.98102      0.01021421               0       -52.50668               0               1               0        2562.653        5142.421    0.0005683243
      0.5009355       -53.01888      0.01034971               0        -52.5076               0               1               0        2562.891        5550.278    0.0005733963
      0.5371671       -53.05468      0.01049341               0       -52.50701               0               1               0        2563.138        5951.718    0.0005866579
      0.5655026       -53.08391      0.01064807               0       -52.50776               0               1               0        2563.396        6265.671    0.0006098809
      0.5733441       -53.09469      0.01081737               0       -52.51053               0               1               0        2563.665        6352.553     0.000644712
      0.5496103       -53.06872      0.01100535               0        -52.5081               0               1               0        2563.946        6089.587    0.0006897182
      0.5139604        -53.0286      0.01121261               0       -52.50343               0               1               0        2564.239        5694.592    0.0007240942
      0.5217039       -53.03603      0.01143295               0       -52.50289               0               1               0        2564.544        5780.388    0.0007215807
      0.5847536       -53.10276      0.01165584               0       -52.50635               0               1               0        2564.863        6478.968    0.0006793328
      0.6496806       -53.17082      0.01187169               0       -52.50927               0               1               0        2565.194        7198.347     0.000622167
      0.6805467       -53.20044       0.0120771               0       -52.50782               0               1               0        2565.536        7540.338    0.0005752612
      0.6818172       -53.19966      0.01227492               0       -52.50557               0               1               0        2565.888        7554.415    0.0005456571
      0.6692299        -53.1875      0.01246947               0        -52.5058               0               1               0         2566.25        7414.951    0.0005283295
      0.6565523       -53.17564      0.01266345               0       -52.50642               0               1               0        2566.621        7274.485     0.000516512
      0.6546062       -53.17312      0.01285753               0       -52.50565               0               1               0        2567.001        7252.923    0.0005045233
      0.6698227       -53.18777      0.01305057               0       -52.50489               0               1               0        2567.391        7421.519    0.0004879992
      0.7023903       -53.22054       0.0132402               0       -52.50491               0               1               0        2567.789        7782.362    0.0004655453
      0.7466282       -53.26498      0.01342392               0       -52.50493               0               1               0        2568.196         8272.51    0.0004387361
      0.7937536       -53.31343      0.01359995               0       -52.50608               0               1               0         2568.61        8794.652    0.0004104445
      0.8352582       -53.35677      0.01376775               0       -52.50774               0               1               0        2569.032        9254.515    0.0003842041
      0.8652966       -53.38724      0.01392822               0       -52.50802               0               1               0         2569.46        9587.335    0.0003630898
        0.88169       -53.40322      0.01408336               0       -52.50745               0               1               0        2569.895        9768.971    0.0003484458
      0.8857909        -53.4073      0.01423546               0       -52.50727               0               1               0        2570.336        9814.409    0.0003395334
      0.8823037       -53.40267      0.01438642               0       -52.50598               0               1               0        2570.783        9775.771    0.0003346186
      0.8784918       -53.39912      0.01453715               0        -52.5061               0               1               0        2571.236        9733.535    0.0003304923
      0.8813254         -53.402      0.01468755               0       -52.50599               0               1               0        2571.695        9764.932    0.0003251841
      0.8941921       -53.41525      0.01483676               0       -52.50622               0               1               0         2572.16        9907.492    0.0003174021
      0.9153973       -53.43776      0.01498375               0       -52.50738               0               1               0        2572.631        10142.44    0.0003076252
      0.9398191       -53.46254      0.01512797               0       -52.50759               0               1               0        2573.106        10413.03    0.0002980209
      0.9623683       -53.48544      0.01526974               0        -52.5078               0               1               0        2573.588        10662.87     0.000290387
      0.9801991       -53.50318      0.01541034               0       -52.50757               0               1               0        2574.074        10860.43    0.0002868318
      0.9928349        -53.5146      0.01555191               0       -52.50621               0               1               0        2574.565        11000.44    0.0002884297
       1.000755       -53.52394      0.01569705               0       -52.50749               0               1               0        2575.062         11088.2     0.000295295
       1.003535       -53.52596      0.01584905               0       -52.50658               0               1               0        2575.563           11119     0.000309514
       0.998769       -53.51991      0.01601187               0       -52.50513               0               1               0        2576.071        11066.19    0.0003309133
      0.9825969       -53.50458       0.0161894               0       -52.50579               0               1               0        2576.584           10887    0.0003588683
      0.9535381       -53.47725      0.01638463               0       -52.50733               0               1               0        2577.103        10565.04    0.0003905289
      0.9194239       -53.44328      0.01659791               0       -52.50725               0               1               0         2577.63        10187.06    0.0004187943
       0.897109       -53.42048      0.01682533               0       -52.50655               0               1               0        2578.164        9939.811    0.0004340348
      0.8963039         -53.421      0.01705929               0       -52.50764               0               1               0        2578.705         9930.89    0.0004309448
      0.9073714       -53.43386      0.01729183               0        -52.5092               0               1               0        2579.254        10053.52    0.0004150946
      0.9140845       -53.44016      0.01751855               0       -52.50856               0               1               0        2579.811         10127.9    0.0003975532
      0.9089155        -53.4348      0.01773964               0       -52.50815               0               1               0        2580.375        10070.63    0.0003848036
      0.8923676       -53.41866      0.01795821               0       -52.50834               0               1               0        2580.946        9887.278    0.0003795615
      0.8671529       -53.39413      0.01817834               0        -52.5088               0               1               0        2581.523        9607.903    0.0003815319
       0.835647       -53.36219      0.01840387               0       -52.50814               0               1               0        2582.107        9258.823    0.0003893271
      0.8003192       -53.32552      0.01863761               0       -52.50657               0               1               0        2582.698        8867.397    0.0004004969
      0.7646281       -53.29011      0.01888079               0        -52.5066               0               1               0        2583.296        8471.946    0.0004118388
      0.7332804        -53.2593      0.01913303               0       -52.50689               0               1               0        2583.902        8124.619    0.0004210863
       0.711292       -53.23723      0.01939268               0       -52.50654               0               1               0        2584.515        7880.991      0.00042633
      0.7020569       -53.22869      0.01965702               0       -52.50698               0               1               0        2585.136        7778.668    0.0004260694
      0.7058375       -53.23324      0.01992273               0       -52.50748               0               1               0        2585.764        7820.557    0.0004203167
      0.7198434       -53.24757      0.02018665               0       -52.50754               0               1               0          2586.4        7975.739    0.0004101529
      0.7397474       -53.26762      0.02044626               0       -52.50743               0               1               0        2587.043        8196.273    0.0003970939
      0.7614438       -53.28962      0.02069997               0       -52.50748               0               1               0        2587.693        8436.665    0.0003828904
      0.7820711       -53.31021       0.0209472               0       -52.50719               0               1               0         2588.35        8665.211    0.0003691181
      0.8001871       -53.32826       0.0211882               0       -52.50688               0               1               0        2589.013        8865.933    0.0003565968
      0.8154383       -53.34479      0.02142359               0       -52.50793               0               1               0        2589.683        9034.914    0.0003455482
      0.8280862       -53.35838      0.02165445               0       -52.50863               0               1               0        2590.359        9175.051     0.000336869
      0.8387054       -53.36795      0.02188249               0       -52.50736               0               1               0        2591.041         9292.71     0.000331374
      0.8479574        -53.3774      0.02210962               0       -52.50733               0               1               0        2591.729         9395.22    0.0003285773
      0.8562438       -53.38652      0.02233801               0       -52.50794               0               1               0        2592.422        9487.032    0.0003294475
      0.8634764       -53.39336       0.0225706               0       -52.50731               0               1               0        2593.122        9567.168    0.0003350449
      0.8689015       -53.39978      0.02281097               0       -52.50807               0               1               0        2593.827        9627.277    0.0003457439
      0.8708602       -53.40215      0.02306344               0       -52.50822               0               1               0        2594.539        9648.979    0.0003628963
      0.8672695       -53.39929      0.02333258               0       -52.50869               0               1               0        2595.257        9609.195    0.0003855232
      0.8572596       -53.39034      0.02362177               0       -52.50946               0               1               0        2595.982        9498.286    0.0004110385
      0.8440997       -53.37595      0.02393156               0       -52.50792               0               1               0        2596.714        9352.478    0.0004344516
      0.8358802       -53.36619       0.0242579               0       -52.50605               0               1               0        2597.454        9261.406    0.0004478558
      0.8384018        -53.3706      0.02459215               0       -52.50761               0               1               0        2598.202        9289.346    0.0004464703
       0.847501       -53.38099      0.02492485               0       -52.50856               0               1               0        2598.958        9390.163    0.0004334332
      0.8530726       -53.38508      0.02524972               0       -52.50676               0               1               0        2599.721        9451.895    0.0004160995
      0.8485321       -53.38051      0.02556497               0       -52.50641               0               1               0        2600.492        9401.588    0.0004000081
      0.8333074       -53.36706       0.0258722               0       -52.50788               0               1               0         2601.27        9232.901    0.0003881908
      0.8102009       -53.34413      0.02617518               0       -52.50775               0               1               0        2602.055        8976.884     0.000382612
      0.7826086       -53.31591      0.02647825               0       -52.50683               0               1               0        2602.847        8671.166    0.0003820739
      0.7532602       -53.28723      0.02678451               0       -52.50718               0               1               0        2603.646        8345.992    0.0003843322
      0.7243281       -53.25838      0.02709579               0       -52.50695               0               1               0        2604.451        8025.429    0.0003881963
       0.697579       -53.23248      0.02741285               0       -52.50749               0               1               0        2605.264        7729.054    0.0003921773
      0.6744137       -53.20957      0.02773549               0       -52.50742               0               1               0        2606.083        7472.387    0.0003953023
      0.6559771       -53.19056       0.0280627               0       -52.50652               0               1               0        2606.909        7268.112    0.0003966272
      0.6431969       -53.17855      0.02839258               0       -52.50696               0               1               0        2607.743         7126.51    0.0003951233
      0.6367725       -53.17314      0.02872279               0       -52.50765               0               1               0        2608.583        7055.328    0.0003908784
      0.6372015       -53.17298      0.02905106               0       -52.50672               0               1               0        2609.431        7060.081    0.0003841349
      0.6447668       -53.17984      0.02937513               0       -52.50569               0               1               0        2610.285        7143.904    0.0003748739
      0.6594681       -53.19592      0.02969261               0       -52.50676               0               1               0        2611.146        7306.792    0.0003629776
      0.6810245       -53.21886       0.0300015               0       -52.50784               0               1               0        2612.013        7545.633    0.0003495486
      0.7088757       -53.24648      0.03030084               0        -52.5073               0               1               0        2612.887        7854.219    0.0003359886
       0.742158       -53.27936      0.03059061               0       -52.50661               0               1               0        2613.767        8222.982    0.0003230165
      0.7796746       -53.31825      0.03087143               0       -52.50771               0               1               0        2614.652        8638.658    0.0003113881
      0.8196364       -53.35877      0.03114545               0       -52.50798               0               1               0        2615.543        9081.428     0.000303561
