#            KE            Etot        Barostat      Thermostat           Total     Hamiltonian        SNOSE[0]              H0          VOLUME     TEMPERATURE        PRESSURE
      0.2168131        -52.7324     0.008702663               0       -52.50689               0               1       -52.50689        2560.108        2402.252        18.54508
      0.2178292       -52.73307      0.00871099     2.18547e-06       -52.50653    0.0003541931        1.000005       -52.50689        2560.119        2413.509        18.52727
      0.2192184       -52.73417     0.008727652    1.414083e-05       -52.50621    0.0006778914        1.000032       -52.50689        2560.142        2428.901        18.50312
      0.2210013       -52.73589     0.008752676    4.650881e-05       -52.50609    0.0007997635        1.000106       -52.50689        2560.175        2448.656        18.47096
      0.2232055       -52.73819     0.008786103    0.0001145482       -52.50608    0.0008035133        1.000259       -52.50689         2560.22        2473.079        18.43095
      0.2258673       -52.74107     0.008827994     0.000238332       -52.50613      0.00075409        1.000535       -52.50689        2560.276        2502.571        18.38329
      0.2290332       -52.74453     0.008878424    0.0004432414       -52.50618    0.0007095739        1.000986       -52.50689        2560.344        2537.648        18.32741
      0.2327631       -52.74861     0.008937476    0.0007605829       -52.50615    0.0007334048        1.001675       -52.50689        2560.422        2578.974        18.26339
       0.237131       -52.75336     0.009005243     0.001228599       -52.50599    0.0008958927        1.002674       -52.50689        2560.512         2627.37        18.19012
      0.2422257       -52.75903     0.009081817     0.001893876       -52.50583     0.001059014        1.004068       -52.50689        2560.613        2683.818        18.10534
       0.248149       -52.76595     0.009167277     0.002814409       -52.50582     0.001073814        1.005958       -52.50689        2560.725        2749.448        18.00603
      0.2550121       -52.77443     0.009261683     0.004063509        -52.5061    0.0007954857        1.008461       -52.50689        2560.848         2825.49        17.89021
      0.2629274        -52.7847     0.009365075     0.005734436       -52.50668    0.0002125295        1.011721       -52.50689        2560.983        2913.189        17.75681
      0.2719948       -52.79656     0.009477475     0.007944203       -52.50714   -0.0002604934        1.015906       -52.50689        2561.129        3013.655        17.60649
      0.2822926       -52.80998      0.00959889      0.01083544       -52.50726   -0.0003772567        1.021213       -52.50689        2561.287        3127.752         17.4404
      0.2938719       -52.82528     0.009729325      0.01458059        -52.5071   -0.0002148835        1.027866       -52.50689        2561.457        3256.049        17.25977
      0.3067501       -52.84269      0.00986879      0.01938812       -52.50669    0.0002065562        1.036124       -52.50689         2561.64        3398.737        17.06525
      0.3209061       -52.86297      0.01001732      0.02551018       -52.50654    0.0003650877         1.04628       -52.50689        2561.835        3555.584        16.85675
      0.3362686       -52.88668      0.01017504      0.03325421       -52.50698   -0.0001046076        1.058681       -52.50689        2562.044        3725.797        16.63955
      0.3526596       -52.91305      0.01034225      0.04298141       -52.50707   -0.0001964356        1.073727       -52.50689        2562.266        3907.407        16.43071
       0.369708       -52.94178      0.01051959      0.05509099       -52.50646    0.0004599677        1.091877       -52.50689        2562.504        4096.301        16.25118
      0.3867881       -52.97392      0.01070817      0.07001852        -52.5064    0.0005375756        1.113643       -52.50689        2562.758        4285.545        16.11735
      0.4028121        -53.0092       0.0109098       0.0882234       -52.50726   -0.0004240221        1.139604       -52.50689         2563.03        4463.088        16.06241
      0.4154782       -53.04406      0.01112751       0.1100835       -52.50737   -0.0005637322        1.170407       -52.50689        2563.321        4603.426        16.15721
      0.4202299       -53.07398      0.01136613       0.1356721       -52.50671    0.0002147175        1.206708       -52.50689        2563.635        4656.074        16.45778
      0.4102159       -53.09474      0.01163219       0.1644662       -52.50842     -0.00191884        1.249069       -52.50689        2563.973        4545.121        16.96734
      0.3788163       -53.09542      0.01193388       0.1949373       -52.50973    -0.003689812        1.297816       -52.50689        2564.341        4197.218        17.69585
      0.3302464       -53.07349      0.01227895       0.2245128       -52.50645    0.0005905052        1.352777       -52.50689        2564.742        3659.072        18.44882
        0.29126       -53.05881      0.01266829       0.2514568       -52.50343     0.004890016        1.413227       -52.50689        2565.181         3227.11        18.69673
      0.2877765       -53.08236      0.01309205       0.2772644       -52.50423     0.003925337        1.478551       -52.50689        2565.664        3188.513         18.0579
       0.307364       -53.13316      0.01353326       0.3049962       -52.50727   -0.0005893957        1.549063       -52.50689        2566.194        3405.539        16.68873
      0.3187541       -53.17784      0.01397621       0.3356154        -52.5095    -0.004245753        1.625836       -52.50689        2566.775         3531.74        15.10163
      0.3099712       -53.19967      0.01441404       0.3675917       -52.50769    -0.001375884        1.709856       -52.50689         2567.41        3434.426        13.72096
      0.2871967       -53.20613      0.01484813       0.3988441       -52.50524     0.002966395        1.801504       -52.50689        2568.103         3182.09        12.64516
      0.2596098       -53.20785      0.01528273       0.4280552        -52.5049     0.003771478        1.900649       -52.50689        2568.859        2876.431        11.80734
       0.233679       -53.21003      0.01572199       0.4547758       -52.50586     0.002063757        2.006901       -52.50689        2569.685        2589.123        11.12307
      0.2130524       -53.21488      0.01616952       0.4791337       -52.50653    0.0007640974        2.119789       -52.50689        2570.584        2360.583        10.52476
      0.1991615       -53.22382      0.01662842       0.5015891       -52.50644    0.0009885435         2.23888       -52.50689        2571.564        2206.675        9.958172
      0.1917035       -53.23776      0.01710111       0.5227486       -52.50621     0.001609312        2.363863       -52.50689        2572.629        2124.041        9.387023
       0.189199       -53.25625      0.01758935       0.5431964       -52.50627     0.001542158        2.494609       -52.50689        2573.786        2096.292        8.799151
       0.189615       -53.27774      0.01809443       0.5633624       -52.50667    0.0005601216        2.631177       -52.50689        2575.042        2100.901        8.202599
      0.1909358       -53.30007      0.01861747       0.5834594       -52.50706   -0.0004817635        2.773763       -52.50689          2576.4        2115.535        7.617154
      0.1915717       -53.32158      0.01915964       0.6034988       -52.50735    -0.001356739        2.922623       -52.50689        2577.869        2122.581        7.062947
      0.1905584       -53.34096       0.0197223       0.6233455       -52.50733    -0.001365044        3.077986       -52.50689        2579.454        2111.354        6.558504
      0.1875617       -53.35785      0.02030704       0.6427895       -52.50719   -0.0009816478        3.239979       -52.50689        2581.161        2078.151        6.114155
      0.1827308       -53.37281      0.02091556       0.6616253       -52.50754    -0.002237564        3.408578       -52.50689        2582.998        2024.626        5.730454
      0.1764999       -53.38575      0.02154968       0.6796808       -52.50802     -0.00405139        3.583609       -52.50689        2584.971        1955.588        5.407068
      0.1694167        -53.3964      0.02221165       0.6968081       -52.50797    -0.004073222        3.764728       -52.50689        2587.087        1877.108        5.141318
       0.162023       -53.40539      0.02290403       0.7129044       -52.50756    -0.002648079        3.951411       -52.50689        2589.355        1795.186        4.921722
      0.1547944       -53.41339      0.02362923       0.7279324       -52.50703    -0.000614672        4.142975       -52.50689        2591.783        1715.095        4.733738
      0.1481136        -53.4205      0.02438921       0.7419016       -52.50609      0.00344858         4.33861       -52.50689        2594.377        1641.073        4.565075
      0.1422493       -53.42757       0.0251851       0.7548626       -52.50527     0.007321516        4.537397       -52.50689        2597.145        1576.097        4.398953
      0.1373669       -53.43531      0.02601653       0.7669112       -52.50501      0.00888364        4.738357       -52.50689        2600.095        1522.001        4.219282
      0.1335671       -53.44418      0.02688098       0.7781693       -52.50556     0.006548402        4.940505       -52.50689        2603.233          1479.9         4.01183
      0.1309165       -53.45377       0.0277734       0.7887557       -52.50632     0.002890479        5.142896       -52.50689        2606.563        1450.532        3.768315
      0.1294506       -53.46356      0.02868574       0.7987638       -52.50666     0.001188711        5.344631       -52.50689        2610.089         1434.29        3.483282
      0.1291379       -53.47368      0.02960664       0.8082714       -52.50666     0.001239852         5.54486       -52.50689        2613.813        1430.826        3.149684
      0.1298303       -53.48456      0.03052137       0.8173564       -52.50685    0.0002222994        5.742799       -52.50689        2617.735        1438.497        2.763628
       0.131242       -53.49594       0.0314131       0.8260851        -52.5072    -0.001859905        5.937771       -52.50689        2621.852        1454.138        2.331604
      0.1329997       -53.50745      0.03226462       0.8344965       -52.50769    -0.004908262        6.129195       -52.50689        2626.157        1473.614        1.865945
       0.134741       -53.51839      0.03306008       0.8425979       -52.50799    -0.006950316        6.316558       -52.50689        2630.644        1492.907         1.38354
       0.136205        -53.5286      0.03378608       0.8503742       -52.50823    -0.008766765         6.49936       -52.50689        2635.301        1509.127       0.9000644
        0.13728       -53.53765      0.03443275       0.8577987       -52.50814    -0.008380926         6.67709       -52.50689        2640.116        1521.039       0.4327485
      0.1379934       -53.54532      0.03499419        0.864838        -52.5075    -0.004187288        6.849188       -52.50689        2645.074        1528.942     -0.00697614
      0.1384502        -53.5522      0.03546712       0.8714678       -52.50681    0.0005308375         7.01503       -52.50689         2650.16        1534.004      -0.4169211
      0.1387818       -53.55871      0.03584977       0.8776811        -52.5064     0.003478146        7.173972       -52.50689        2655.357        1537.678      -0.7959505
      0.1391227       -53.56506      0.03614201       0.8834818       -52.50631     0.004205234        7.325387       -52.50689        2660.648        1541.456       -1.142828
      0.1395964       -53.57091      0.03634562       0.8888751        -52.5061     0.005900419        7.468697       -52.50689        2666.014        1546.704        -1.45525
       0.140304       -53.57647      0.03646396        0.893866       -52.50584     0.007978468         7.60336       -52.50689        2671.437        1554.544        -1.73371
      0.1413185       -53.58218      0.03650131        0.898466        -52.5059      0.00763266          7.7289       -52.50689        2676.899        1565.785       -1.981334
       0.142679       -53.58827      0.03646256       0.9026917       -52.50644     0.003495458        7.844949       -52.50689        2682.382        1580.858       -2.199899
      0.1443821       -53.59458       0.0363533       0.9065591       -52.50728    -0.003143709        7.951272       -52.50689        2687.867        1599.729       -2.388219
      0.1463735       -53.60054      0.03617993       0.9100778       -52.50791     -0.00825642        8.047761       -52.50689        2693.338        1621.793       -2.544137
      0.1485508       -53.60561      0.03594929       0.9132492       -52.50786    -0.007952717        8.134392       -52.50689        2698.779        1645.917       -2.667034
      0.1507856       -53.60961      0.03566785       0.9160695       -52.50709    -0.001634801        8.211163       -52.50689        2704.176        1670.679       -2.760155
      0.1529708       -53.61291      0.03534054        0.918535       -52.50607     0.006780046        8.278078       -52.50689        2709.515         1694.89       -2.833119
      0.1550749       -53.61608       0.0349698       0.9206459       -52.50539      0.01245322        8.335156       -52.50689        2714.784        1718.202       -2.898549
      0.1571746       -53.61948      0.03455533       0.9224062       -52.50535       0.0128974        8.382475       -52.50689        2719.973        1741.467       -2.969424
      0.1594438       -53.62325      0.03409444       0.9238229       -52.50588     0.008437168        8.420205       -52.50689         2725.07         1766.61       -3.057305
      0.1620951       -53.62729      0.03358253       0.9249046       -52.50671     0.001487212        8.448633       -52.50689        2730.065        1795.985       -3.171162
      0.1652891       -53.63151      0.03301411       0.9256608       -52.50755    -0.005613737        8.468168       -52.50689        2734.945        1831.374       -3.316482
      0.1690505       -53.63579      0.03238397       0.9261024       -52.50826     -0.01161403        8.479345       -52.50689        2739.698         1873.05       -3.494264
      0.1732378       -53.63989      0.03168871        0.926242       -52.50872     -0.01554899        8.482809       -52.50689        2744.311        1919.445       -3.699497
      0.1775878       -53.64358        0.030928       0.9260942       -52.50897     -0.01768849        8.479275       -52.50689        2748.771        1967.642        -3.92269
      0.1818106       -53.64659      0.03010536       0.9256759         -52.509     -0.01790438         8.46949       -52.50689        2753.065         2014.43        -4.15091
      0.1856785       -53.64876      0.02922815       0.9250059       -52.50885     -0.01658043        8.454169       -52.50689        2757.179        2057.286       -4.371108
      0.1890685       -53.65006      0.02830672       0.9241039       -52.50858     -0.01431138        8.433963       -52.50689        2761.103        2094.846       -4.572359
      0.1919561       -53.65056      0.02735322        0.922989       -52.50826     -0.01156398         8.40944       -52.50689        2764.826         2126.84       -4.746563
      0.1943836        -53.6503      0.02638045       0.9216792       -52.50786    -0.008145766        8.381081       -52.50689        2768.341        2153.736       -4.887278
      0.1964254       -53.64942      0.02540085       0.9201903        -52.5074    -0.004310464        8.349289       -52.50689        2771.641        2176.359       -4.991478
      0.1981607       -53.64812      0.02442578       0.9185357         -52.507   -0.0009213612        8.314395       -52.50689        2774.723        2195.586       -5.058257
      0.1996567       -53.64663      0.02346513       0.9167267       -52.50678     0.000891115        8.276687       -52.50689        2777.584        2212.161       -5.087835
      0.2009562       -53.64501      0.02252723       0.9147731       -52.50676      0.00105152        8.236426       -52.50689        2780.226        2226.559       -5.080034
      0.2020712        -53.6433      0.02161892       0.9126843       -52.50693   -0.0003319448        8.193857       -52.50689         2782.65        2238.914       -5.035362
      0.2029806        -53.6414      0.02074566       0.9104693        -52.5072    -0.002588913        8.149207       -52.50689         2784.86         2248.99       -4.954307
      0.2036316       -53.63918      0.01991173       0.9081376        -52.5075    -0.004948027        8.102679       -52.50689        2786.861        2256.203       -4.838296
      0.2039509       -53.63655      0.01912033        0.905698       -52.50778    -0.007182024         8.05443       -52.50689        2788.662         2259.74       -4.690864
      0.2038702        -53.6334      0.01837371       0.9031582       -52.50799    -0.008867334        8.004568       -52.50689        2790.269        2258.846       -4.517836
      0.2033683       -53.62968      0.01767317       0.9005242       -52.50812    -0.009787449        7.953129       -52.50689        2791.693        2253.286        -4.32779
      0.2025213        -53.6255      0.01701908       0.8977985       -52.50816      -0.0100391         7.90008       -52.50689        2792.943        2243.901       -4.133077
      0.2015392       -53.62101      0.01641087       0.8949796       -52.50808    -0.009343357        7.845335       -52.50689         2794.03        2233.019       -3.948392
       0.200754       -53.61668      0.01584717       0.8920605       -52.50802    -0.008808753        7.788779       -52.50689        2794.964         2224.32       -3.790127
      0.2005348       -53.61298      0.01532614       0.8890296       -52.50809    -0.009274319        7.730336       -52.50689        2795.751        2221.891       -3.673511
      0.2011554       -53.61033      0.01484604       0.8858733       -52.50846     -0.01205081        7.670031       -52.50689          2796.4        2228.767       -3.608789
      0.2026884       -53.60899      0.01440577       0.8825797       -52.50932     -0.01852316        7.608032       -52.50689        2796.915        2245.752       -3.598301
      0.2049963       -53.60869      0.01400542       0.8791451       -52.51054      -0.0275728        7.544676       -52.50689          2797.3        2271.323        -3.63441
      0.2078311       -53.60887      0.01364642       0.8755776       -52.51181     -0.03686865        7.480431       -52.50689        2797.555        2302.733       -3.703063
      0.2109737       -53.60869      0.01333122       0.8718988       -52.51249     -0.04156001        7.415827       -52.50689        2797.682        2337.552       -3.786611
      0.2143183       -53.60741      0.01306238         0.86814       -52.51189      -0.0368164        7.351381       -52.50689        2797.681         2374.61       -3.869819
      0.2178662       -53.60588      0.01284192       0.8643305       -52.51084     -0.02880832        7.287531       -52.50689        2797.553         2413.92       -3.947109
      0.2216663        -53.6045       0.0126709       0.8604951       -52.50966     -0.02007179        7.224695       -52.50689        2797.297        2456.024        -4.01583
      0.2257641        -53.6037       0.0125494       0.8566574       -52.50873     -0.01318818        7.163306       -52.50689        2796.915        2501.427       -4.076765
